20.02500 71.0
20.07500 72.0
20.12500 88.0
20.17500 82.0
20.22500 83.0
20.27500 90.0
20.32500 84.0
20.37500 73.0
20.42500 90.0
20.47500 82.0
20.52500 82.0
20.57500 65.0
20.62500 64.0
20.67500 73.0
20.72500 76.0
20.77500 70.0
20.82500 69.0
20.87500 60.0
20.92500 74.0
20.97500 71.0
21.02500 79.0
21.07500 79.0
21.12500 59.0
21.17500 75.0
21.22500 79.0
21.27500 64.0
21.32500 49.0
21.37500 67.0
21.42500 69.0
21.47500 76.0
21.52500 70.0
21.57500 73.0
21.62500 82.0
21.67500 84.0
21.72500 78.0
21.77500 63.0
21.82500 88.0
21.87500 76.0
21.92500 58.0
21.97500 67.0
22.02500 76.0
22.07500 69.0
22.12500 74.0
22.17500 82.0
22.22500 82.0
22.27500 83.0
22.32500 71.0
22.37500 78.0
22.42500 75.0
22.47500 71.0
22.52500 54.0
22.57500 78.0
22.62500 72.0
22.67500 74.0
22.72500 66.0
22.77500 73.0
22.82500 68.0
22.87500 68.0
22.92500 70.0
22.97500 74.0
23.02500 64.0
23.07500 68.0
23.12500 75.0
23.17500 68.0
23.22500 54.0
23.27500 73.0
23.32500 56.0
23.37500 62.0
23.42500 66.0
23.47500 62.0
23.52500 58.0
23.57500 60.0
23.62500 56.0
23.67500 65.0
23.72500 63.0
23.77500 67.0
23.82500 66.0
23.87500 58.0
23.92500 67.0
23.97500 75.0
24.02500 63.0
24.07500 62.0
24.12500 53.0
24.17500 68.0
24.22500 61.0
24.27500 71.0
24.32500 79.0
24.37500 66.0
24.42500 69.0
24.47500 54.0
24.52500 79.0
24.57500 59.0
24.62500 54.0
24.67500 63.0
24.72500 60.0
24.77500 61.0
24.82500 68.0
24.87500 64.0
24.92500 73.0
24.97500 59.0
25.02500 59.0
25.07500 50.0
25.12500 66.0
25.17500 45.0
25.22500 62.0
25.27500 58.0
25.32500 50.0
25.37500 60.0
25.42500 58.0
25.47500 48.0
25.52500 51.0
25.57500 76.0
25.62500 72.0
25.67500 62.0
25.72500 47.0
25.77500 47.0
25.82500 48.0
25.87500 50.0
25.92500 43.0
25.97500 45.0
26.02500 58.0
26.07500 61.0
26.12500 48.0
26.17500 54.0
26.22500 43.0
26.27500 47.0
26.32500 52.0
26.37500 52.0
26.42500 54.0
26.47500 53.0
26.52500 46.0
26.57500 60.0
26.62500 55.0
26.67500 55.0
26.72500 58.0
26.77500 48.0
26.82500 57.0
26.87500 32.0
26.92500 64.0
26.97500 59.0
27.02500 56.0
27.07500 44.0
27.12500 54.0
27.17500 59.0
27.22500 52.0
27.27500 56.0
27.32500 39.0
27.37500 65.0
27.42500 39.0
27.47500 42.0
27.52500 50.0
27.57500 36.0
27.62500 47.0
27.67500 52.0
27.72500 59.0
27.77500 49.0
27.82500 47.0
27.87500 48.0
27.92500 51.0
27.97500 49.0
28.02500 43.0
28.07500 49.0
28.12500 50.0
28.17500 38.0
28.22500 40.0
28.27500 41.0
28.32500 38.0
28.37500 39.0
28.42500 47.0
28.47500 41.0
28.52500 42.0
28.57500 63.0
28.62500 40.0
28.67500 35.0
28.72500 47.0
28.77500 38.0
28.82500 47.0
28.87500 46.0
28.92500 36.0
28.97500 49.0
29.02500 45.0
29.07500 50.0
29.12500 49.0
29.17500 41.0
29.22500 51.0
29.27500 57.0
29.32500 49.0
29.37500 56.0
29.42500 60.0
29.47500 49.0
29.52500 37.0
29.57500 47.0
29.62500 30.0
29.67500 37.0
29.72500 38.0
29.77500 40.0
29.82500 44.0
29.87500 42.0
29.92500 29.0
29.97500 43.0
30.02500 43.0
30.07500 35.0
30.12500 25.0
30.17500 22.0
30.22500 33.0
30.27500 43.0
30.32500 27.0
30.37500 34.0
30.42500 38.0
30.47500 23.0
30.52500 42.0
30.57500 48.0
30.62500 33.0
30.67500 30.0
30.72500 38.0
30.77500 34.0
30.82500 39.0
30.87500 39.0
30.92500 23.0
30.97500 30.0
31.02500 33.0
31.07500 25.0
31.12500 33.0
31.17500 39.0
31.22500 39.0
31.27500 37.0
31.32500 29.0
31.37500 34.0
31.42500 34.0
31.47500 40.0
31.52500 28.0
31.57500 25.0
31.62500 34.0
31.67500 33.0
31.72500 41.0
31.77500 30.0
31.82500 35.0
31.87500 41.0
31.92500 45.0
31.97500 31.0
32.02500 28.0
32.07500 31.0
32.12500 28.0
32.17500 35.0
32.22500 37.0
32.27500 27.0
32.32500 34.0
32.37500 25.0
32.42500 24.0
32.47500 28.0
32.52500 34.0
32.57500 27.0
32.62500 24.0
32.67500 20.0
32.72500 25.0
32.77500 14.0
32.82500 24.0
32.87500 24.0
32.92500 24.0
32.97500 27.0
33.02500 35.0
33.07500 20.0
33.12500 30.0
33.17500 27.0
33.22500 31.0
33.27500 29.0
33.32500 27.0
33.37500 35.0
33.42500 22.0
33.47500 24.0
33.52500 33.0
33.57500 21.0
33.62500 33.0
33.67500 39.0
33.72500 29.0
33.77500 33.0
33.82500 34.0
33.87500 26.0
33.92500 39.0
33.97500 32.0
34.02500 25.0
34.07500 28.0
34.12500 30.0
34.17500 32.0
34.22500 37.0
34.27500 35.0
34.32500 33.0
34.37500 32.0
34.42500 27.0
34.47500 27.0
34.52500 20.0
34.57500 27.0
34.62500 29.0
34.67500 18.0
34.72500 19.0
34.77500 22.0
34.82500 27.0
34.87500 30.0
34.92500 17.0
34.97500 24.0
35.02500 23.0
35.07500 27.0
35.12500 15.0
35.17500 24.0
35.22500 37.0
35.27500 31.0
35.32500 29.0
35.37500 28.0
35.42500 25.0
35.47500 26.0
35.52500 34.0
35.57500 28.0
35.62500 26.0
35.67500 30.0
35.72500 28.0
35.77500 25.0
35.82500 24.0
35.87500 26.0
35.92500 24.0
35.97500 30.0
36.02500 19.0
36.07500 24.0
36.12500 31.0
36.17500 24.0
36.22500 27.0
36.27500 27.0
36.32500 36.0
36.37500 24.0
36.42500 24.0
36.47500 32.0
36.52500 21.0
36.57500 23.0
36.62500 34.0
36.67500 25.0
36.72500 23.0
36.77500 26.0
36.82500 24.0
36.87500 26.0
36.92500 21.0
36.97500 33.0
37.02500 34.0
37.07500 27.0
37.12500 23.0
37.17500 29.0
37.22500 25.0
37.27500 32.0
37.32500 37.0
37.37500 33.0
37.42500 34.0
37.47500 22.0
37.52500 38.0
37.57500 45.0
37.62500 47.0
37.67500 57.0
37.72500 76.0
37.77500 116.0
37.82500 170.0
37.87500 277.0
37.92500 415.0
37.97500 726.0
38.02500 1114.0
38.07500 1400.0
38.12500 1354.0
38.17500 1016.0
38.22500 655.0
38.27500 348.0
38.32500 185.0
38.37500 105.0
38.42500 86.0
38.47500 63.0
38.52500 43.0
38.57500 44.0
38.62500 39.0
38.67500 31.0
38.72500 34.0
38.77500 23.0
38.82500 26.0
38.87500 30.0
38.92500 26.0
38.97500 28.0
39.02500 29.0
39.07500 27.0
39.12500 23.0
39.17500 22.0
39.22500 28.0
39.27500 28.0
39.32500 20.0
39.37500 23.0
39.42500 29.0
39.47500 18.0
39.52500 24.0
39.57500 19.0
39.62500 20.0
39.67500 23.0
39.72500 24.0
39.77500 22.0
39.82500 16.0
39.87500 17.0
39.92500 16.0
39.97500 19.0
40.02500 16.0
40.07500 29.0
40.12500 16.0
40.17500 19.0
40.22500 20.0
40.27500 17.0
40.32500 16.0
40.37500 22.0
40.42500 13.0
40.47500 18.0
40.52500 11.0
40.57500 15.0
40.62500 20.0
40.67500 13.0
40.72500 19.0
40.77500 21.0
40.82500 16.0
40.87500 29.0
40.92500 18.0
40.97500 9.0
41.02500 21.0
41.07500 19.0
41.12500 12.0
41.17500 14.0
41.22500 19.0
41.27500 17.0
41.32500 23.0
41.37500 13.0
41.42500 13.0
41.47500 19.0
41.52500 21.0
41.57500 18.0
41.62500 24.0
41.67500 18.0
41.72500 14.0
41.77500 19.0
41.82500 17.0
41.87500 23.0
41.92500 15.0
41.97500 24.0
42.02500 18.0
42.07500 15.0
42.12500 23.0
42.17500 21.0
42.22500 24.0
42.27500 25.0
42.32500 27.0
42.37500 22.0
42.42500 21.0
42.47500 15.0
42.52500 17.0
42.57500 20.0
42.62500 14.0
42.67500 18.0
42.72500 24.0
42.77500 22.0
42.82500 24.0
42.87500 20.0
42.92500 12.0
42.97500 20.0
43.02500 23.0
43.07500 24.0
43.12500 25.0
43.17500 27.0
43.22500 15.0
43.27500 24.0
43.32500 17.0
43.37500 24.0
43.42500 28.0
43.47500 21.0
43.52500 25.0
43.57500 22.0
43.62500 25.0
43.67500 27.0
43.72500 32.0
43.77500 31.0
43.82500 27.0
43.87500 50.0
43.92500 48.0
43.97500 73.0
44.02500 118.0
44.07500 168.0
44.12500 275.0
44.17500 378.0
44.22500 498.0
44.27500 543.0
44.32500 537.0
44.37500 424.0
44.42500 313.0
44.47500 190.0
44.52500 115.0
44.57500 75.0
44.62500 43.0
44.67500 31.0
44.72500 30.0
44.77500 24.0
44.82500 26.0
44.87500 32.0
44.92500 20.0
44.97500 22.0
45.02500 21.0
45.07500 15.0
45.12500 20.0
45.17500 18.0
45.22500 11.0
45.27500 23.0
45.32500 14.0
45.37500 18.0
45.42500 17.0
45.47500 19.0
45.52500 14.0
45.57500 19.0
45.62500 12.0
45.67500 7.0
45.72500 25.0
45.77500 9.0
45.82500 9.0
45.87500 13.0
45.92500 16.0
45.97500 15.0
46.02500 13.0
46.07500 10.0
46.12500 17.0
46.17500 12.0
46.22500 18.0
46.27500 8.0
46.32500 15.0
46.37500 14.0
46.42500 19.0
46.47500 12.0
46.52500 13.0
46.57500 15.0
46.62500 16.0
46.67500 15.0
46.72500 13.0
46.77500 15.0
46.82500 12.0
46.87500 7.0
46.92500 9.0
46.97500 16.0
47.02500 15.0
47.07500 10.0
47.12500 16.0
47.17500 19.0
47.22500 15.0
47.27500 12.0
47.32500 11.0
47.37500 13.0
47.42500 12.0
47.47500 10.0
47.52500 11.0
47.57500 14.0
47.62500 7.0
47.67500 12.0
47.72500 13.0
47.77500 16.0
47.82500 23.0
47.87500 9.0
47.92500 9.0
47.97500 18.0
48.02500 13.0
48.07500 18.0
48.12500 15.0
48.17500 10.0
48.22500 14.0
48.27500 9.0
48.32500 12.0
48.37500 9.0
48.42500 16.0
48.47500 7.0
48.52500 14.0
48.57500 13.0
48.62500 19.0
48.67500 16.0
48.72500 15.0
48.77500 11.0
48.82500 11.0
48.87500 17.0
48.92500 13.0
48.97500 11.0
49.02500 6.0
49.07500 8.0
49.12500 14.0
49.17500 10.0
49.22500 5.0
49.27500 14.0
49.32500 12.0
49.37500 10.0
49.42500 11.0
49.47500 8.0
49.52500 15.0
49.57500 14.0
49.62500 10.0
49.67500 15.0
49.72500 17.0
49.77500 7.0
49.82500 13.0
49.87500 7.0
49.92500 11.0
49.97500 15.0
50.02500 21.0
50.07500 12.0
50.12500 8.0
50.17500 15.0
50.22500 6.0
50.27500 10.0
50.32500 11.0
50.37500 3.0
50.42500 10.0
50.47500 16.0
50.52500 18.0
50.57500 9.0
50.62500 9.0
50.67500 16.0
50.72500 11.0
50.77500 11.0
50.82500 9.0
50.87500 11.0
50.92500 12.0
50.97500 5.0
51.02500 12.0
51.07500 8.0
51.12500 11.0
51.17500 10.0
51.22500 14.0
51.27500 11.0
51.32500 14.0
51.37500 9.0
51.42500 9.0
51.47500 6.0
51.52500 13.0
51.57500 10.0
51.62500 15.0
51.67500 14.0
51.72500 11.0
51.77500 8.0
51.82500 5.0
51.87500 11.0
51.92500 5.0
51.97500 7.0
52.02500 12.0
52.07500 5.0
52.12500 10.0
52.17500 10.0
52.22500 6.0
52.27500 9.0
52.32500 8.0
52.37500 5.0
52.42500 13.0
52.47500 13.0
52.52500 9.0
52.57500 9.0
52.62500 10.0
52.67500 9.0
52.72500 9.0
52.77500 9.0
52.82500 6.0
52.87500 8.0
52.92500 13.0
52.97500 8.0
53.02500 16.0
53.07500 13.0
53.12500 10.0
53.17500 16.0
53.22500 9.0
53.27500 10.0
53.32500 9.0
53.37500 9.0
53.42500 11.0
53.47500 6.0
53.52500 19.0
53.57500 8.0
53.62500 7.0
53.67500 11.0
53.72500 10.0
53.77500 5.0
53.82500 4.0
53.87500 7.0
53.92500 8.0
53.97500 2.0
54.02500 13.0
54.07500 8.0
54.12500 20.0
54.17500 7.0
54.22500 11.0
54.27500 5.0
54.32500 10.0
54.37500 11.0
54.42500 6.0
54.47500 11.0
54.52500 12.0
54.57500 5.0
54.62500 11.0
54.67500 10.0
54.72500 12.0
54.77500 14.0
54.82500 7.0
54.87500 5.0
54.92500 8.0
54.97500 8.0
55.02500 12.0
55.07500 14.0
55.12500 12.0
55.17500 13.0
55.22500 5.0
55.27500 13.0
55.32500 6.0
55.37500 10.0
55.42500 6.0
55.47500 10.0
55.52500 12.0
55.57500 9.0
55.62500 10.0
55.67500 6.0
55.72500 12.0
55.77500 9.0
55.82500 14.0
55.87500 8.0
55.92500 13.0
55.97500 10.0
56.02500 11.0
56.07500 7.0
56.12500 9.0
56.17500 10.0
56.22500 10.0
56.27500 4.0
56.32500 9.0
56.37500 12.0
56.42500 11.0
56.47500 6.0
56.52500 10.0
56.57500 8.0
56.62500 8.0
56.67500 10.0
56.72500 10.0
56.77500 13.0
56.82500 7.0
56.87500 9.0
56.92500 8.0
56.97500 13.0
57.02500 7.0
57.07500 8.0
57.12500 6.0
57.17500 8.0
57.22500 11.0
57.27500 11.0
57.32500 8.0
57.37500 14.0
57.42500 7.0
57.47500 10.0
57.52500 12.0
57.57500 6.0
57.62500 11.0
57.67500 9.0
57.72500 10.0
57.77500 15.0
57.82500 8.0
57.87500 4.0
57.92500 7.0
57.97500 5.0
58.02500 10.0
58.07500 9.0
58.12500 11.0
58.17500 15.0
58.22500 14.0
58.27500 3.0
58.32500 5.0
58.37500 12.0
58.42500 9.0
58.47500 9.0
58.52500 5.0
58.57500 6.0
58.62500 11.0
58.67500 6.0
58.72500 11.0
58.77500 3.0
58.82500 7.0
58.87500 6.0
58.92500 8.0
58.97500 6.0
59.02500 6.0
59.07500 8.0
59.12500 10.0
59.17500 8.0
59.22500 13.0
59.27500 10.0
59.32500 6.0
59.37500 10.0
59.42500 6.0
59.47500 5.0
59.52500 8.0
59.57500 16.0
59.62500 8.0
59.67500 12.0
59.72500 9.0
59.77500 11.0
59.82500 7.0
59.87500 13.0
59.92500 11.0
59.97500 9.0
60.02500 12.0
60.07500 15.0
60.12500 14.0
60.17500 10.0
60.22500 12.0
60.27500 9.0
60.32500 5.0
60.37500 4.0
60.42500 7.0
60.47500 8.0
60.52500 12.0
60.57500 6.0
60.62500 12.0
60.67500 6.0
60.72500 6.0
60.77500 5.0
60.82500 9.0
60.87500 10.0
60.92500 6.0
60.97500 11.0
61.02500 10.0
61.07500 6.0
61.12500 11.0
61.17500 11.0
61.22500 7.0
61.27500 5.0
61.32500 10.0
61.37500 12.0
61.42500 10.0
61.47500 11.0
61.52500 5.0
61.57500 6.0
61.62500 16.0
61.67500 11.0
61.72500 6.0
61.77500 15.0
61.82500 11.0
61.87500 8.0
61.92500 7.0
61.97500 17.0
62.02500 11.0
62.07500 14.0
62.12500 8.0
62.17500 9.0
62.22500 10.0
62.27500 9.0
62.32500 11.0
62.37500 13.0
62.42500 9.0
62.47500 10.0
62.52500 11.0
62.57500 8.0
62.62500 4.0
62.67500 6.0
62.72500 12.0
62.77500 11.0
62.82500 7.0
62.87500 10.0
62.92500 9.0
62.97500 6.0
63.02500 9.0
63.07500 10.0
63.12500 12.0
63.17500 6.0
63.22500 10.0
63.27500 11.0
63.32500 4.0
63.37500 12.0
63.42500 12.0
63.47500 12.0
63.52500 15.0
63.57500 15.0
63.62500 14.0
63.67500 12.0
63.72500 17.0
63.77500 11.0
63.82500 13.0
63.87500 10.0
63.92500 10.0
63.97500 17.0
64.02500 22.0
64.07500 23.0
64.12500 31.0
64.17500 41.0
64.22500 49.0
64.27500 107.0
64.32500 154.0
64.37500 229.0
64.42500 270.0
64.47500 213.0
64.52500 191.0
64.57500 188.0
64.62500 136.0
64.67500 108.0
64.72500 63.0
64.77500 35.0
64.82500 35.0
64.87500 23.0
64.92500 24.0
64.97500 12.0
65.02500 20.0
65.07500 13.0
65.12500 11.0
65.17500 14.0
65.22500 17.0
65.27500 11.0
65.32500 10.0
65.37500 13.0
65.42500 11.0
65.47500 8.0
65.52500 6.0
65.57500 14.0
65.62500 6.0
65.67500 12.0
65.72500 7.0
65.77500 11.0
65.82500 11.0
65.87500 10.0
65.92500 15.0
65.97500 8.0
66.02500 11.0
66.07500 10.0
66.12500 9.0
66.17500 5.0
66.22500 12.0
66.27500 12.0
66.32500 11.0
66.37500 7.0
66.42500 16.0
66.47500 12.0
66.52500 7.0
66.57500 6.0
66.62500 13.0
66.67500 12.0
66.72500 12.0
66.77500 13.0
66.82500 10.0
66.87500 10.0
66.92500 7.0
66.97500 12.0
67.02500 7.0
67.07500 8.0
67.12500 7.0
67.17500 8.0
67.22500 11.0
67.27500 6.0
67.32500 10.0
67.37500 9.0
67.42500 9.0
67.47500 10.0
67.52500 7.0
67.57500 10.0
67.62500 14.0
67.67500 6.0
67.72500 8.0
67.77500 9.0
67.82500 6.0
67.87500 11.0
67.92500 6.0
67.97500 10.0
68.02500 11.0
68.07500 7.0
68.12500 7.0
68.17500 15.0
68.22500 5.0
68.27500 8.0
68.32500 9.0
68.37500 9.0
68.42500 6.0
68.47500 11.0
68.52500 11.0
68.57500 12.0
68.62500 9.0
68.67500 17.0
68.72500 3.0
68.77500 9.0
68.82500 10.0
68.87500 6.0
68.92500 4.0
68.97500 8.0
69.02500 9.0
69.07500 10.0
69.12500 10.0
69.17500 5.0
69.22500 13.0
69.27500 4.0
69.32500 10.0
69.37500 9.0
69.42500 5.0
69.47500 3.0
69.52500 13.0
69.57500 14.0
69.62500 10.0
69.67500 5.0
69.72500 8.0
69.77500 5.0
69.82500 9.0
69.87500 6.0
69.92500 6.0
69.97500 9.0
70.02500 6.0
70.07500 2.0
70.12500 13.0
70.17500 7.0
70.22500 12.0
70.27500 6.0
70.32500 9.0
70.37500 6.0
70.42500 4.0
70.47500 3.0
70.52500 3.0
70.57500 8.0
70.62500 9.0
70.67500 7.0
70.72500 11.0
70.77500 6.0
70.82500 7.0
70.87500 7.0
70.92500 4.0
70.97500 4.0
71.02500 9.0
71.07500 6.0
71.12500 10.0
71.17500 8.0
71.22500 11.0
71.27500 3.0
71.32500 8.0
71.37500 6.0
71.42500 9.0
71.47500 9.0
71.52500 8.0
71.57500 5.0
71.62500 5.0
71.67500 8.0
71.72500 12.0
71.77500 8.0
71.82500 2.0
71.87500 7.0
71.92500 8.0
71.97500 7.0
72.02500 8.0
72.07500 12.0
72.12500 9.0
72.17500 6.0
72.22500 7.0
72.27500 4.0
72.32500 9.0
72.37500 7.0
72.42500 8.0
72.47500 6.0
72.52500 5.0
72.57500 7.0
72.62500 6.0
72.67500 8.0
72.72500 2.0
72.77500 11.0
72.82500 4.0
72.87500 5.0
72.92500 6.0
72.97500 7.0
73.02500 6.0
73.07500 6.0
73.12500 8.0
73.17500 6.0
73.22500 9.0
73.27500 7.0
73.32500 7.0
73.37500 8.0
73.42500 7.0
73.47500 8.0
73.52500 6.0
73.57500 6.0
73.62500 6.0
73.67500 6.0
73.72500 5.0
73.77500 10.0
73.82500 7.0
73.87500 9.0
73.92500 12.0
73.97500 12.0
74.02500 10.0
74.07500 6.0
74.12500 10.0
74.17500 7.0
74.22500 6.0
74.27500 11.0
74.32500 10.0
74.37500 12.0
74.42500 6.0
74.47500 3.0
74.52500 8.0
74.57500 8.0
74.62500 3.0
74.67500 5.0
74.72500 8.0
74.77500 5.0
74.82500 8.0
74.87500 4.0
74.92500 8.0
74.97500 11.0
75.02500 8.0
75.07500 10.0
75.12500 8.0
75.17500 10.0
75.22500 4.0
75.27500 7.0
75.32500 6.0
75.37500 2.0
75.42500 13.0
75.47500 5.0
75.52500 14.0
75.57500 12.0
75.62500 7.0
75.67500 9.0
75.72500 11.0
75.77500 17.0
75.82500 6.0
75.87500 9.0
75.92500 12.0
75.97500 7.0
76.02500 6.0
76.07500 6.0
76.12500 6.0
76.17500 8.0
76.22500 7.0
76.27500 15.0
76.32500 11.0
76.37500 6.0
76.42500 11.0
76.47500 11.0
76.52500 6.0
76.57500 18.0
76.62500 6.0
76.67500 19.0
76.72500 9.0
76.77500 12.0
76.82500 10.0
76.87500 13.0
76.92500 20.0
76.97500 26.0
77.02500 23.0
77.07500 43.0
77.12500 30.0
77.17500 76.0
77.22500 92.0
77.27500 165.0
77.32500 213.0
77.37500 226.0
77.42500 199.0
77.47500 170.0
77.52500 139.0
77.57500 128.0
77.62500 136.0
77.67500 88.0
77.72500 62.0
77.77500 36.0
77.82500 36.0
77.87500 25.0
77.92500 16.0
77.97500 11.0
78.02500 25.0
78.07500 11.0
78.12500 9.0
78.17500 13.0
78.22500 10.0
78.27500 11.0
78.32500 11.0
78.37500 10.0
78.42500 12.0
78.47500 6.0
78.52500 6.0
78.57500 8.0
78.62500 11.0
78.67500 6.0
78.72500 15.0
78.77500 8.0
78.82500 14.0
78.87500 4.0
78.92500 12.0
78.97500 6.0
79.02500 5.0
79.07500 5.0
79.12500 6.0
79.17500 10.0
79.22500 14.0
79.27500 9.0
79.32500 7.0
79.37500 9.0
79.42500 8.0
79.47500 6.0
79.52500 8.0
79.57500 4.0
79.62500 5.0
79.67500 5.0
79.72500 8.0
79.77500 9.0
79.82500 8.0
79.87500 3.0
79.92500 9.0
79.97500 11.0
